# Matter power spectrum P(k) at redshift z=0
# for k=1.04535e-05 to 231.582 h/Mpc,
# number of wavenumbers equal to 633
#    1:k (h/Mpc)              2:P (Mpc/h)^3        
       1.045347152160e-05       5.258528122054e+01 
       2.334208584206e-05       1.138376726863e+02 
       3.627607215454e-05       1.739302360473e+02 
       4.929027194922e-05       2.335449842443e+02 
       6.242010361287e-05       2.930648478843e+02 
       7.570187861915e-05       3.527737074816e+02 
       8.917312783978e-05       4.129123213545e+02 
       1.028729423216e-04       4.737011501766e+02 
       1.168423329076e-04       5.353519898949e+02 
       1.311246131126e-04       5.980749618723e+02 
       1.457658096734e-04       6.620833223644e+02 
       1.608151051274e-04       7.275971699603e+02 
       1.763253165993e-04       7.948465792285e+02 
       1.923534145982e-04       8.640744414148e+02 
       2.089610849643e-04       9.355391698717e+02 
       2.262153360182e-04       1.009517359509e+03 
       2.441891512857e-04       1.086306446357e+03 
       2.629621856761e-04       1.166227381013e+03 
       2.826214994080e-04       1.249627300777e+03 
       3.032623189764e-04       1.336882154504e+03 
       3.249888076424e-04       1.428399200033e+03 
       3.479148189155e-04       1.524619250918e+03 
       3.721645948920e-04       1.626018499900e+03 
       3.978733568678e-04       1.733109685871e+03 
       4.251877183835e-04       1.846442303316e+03 
       4.542658313302e-04       1.966601479929e+03 
       4.852771553209e-04       2.094205077057e+03 
       5.184017218058e-04       2.229898510409e+03 
       5.538287515429e-04       2.374346764475e+03 
       5.917544829554e-04       2.528223104806e+03 
       6.323790870702e-04       2.692194111331e+03 
       6.759025901265e-04       2.866900886501e+03 
       7.225198039788e-04       3.052936655967e+03 
       7.724143787654e-04       3.250821471614e+03 
       8.257522350313e-04       3.460975312731e+03 
       8.826747850659e-04       3.683691463140e+03 
       9.432924853833e-04       3.919112517791e+03 
       1.007679336948e-03       4.167211575869e+03 
       1.075868933341e-03       4.427780994005e+03 
       1.147852532804e-03       4.700430450519e+03 
       1.223579408728e-03       4.984595054925e+03 
       1.302959454659e-03       5.279552995303e+03 
       1.385867743454e-03       5.584451014800e+03 
       1.472150525027e-03       5.898335096134e+03 
       1.561632033467e-03       6.220183360031e+03 
       1.654121472127e-03       6.548938336089e+03 
       1.749419635878e-03       6.883536385232e+03 
       1.847324776702e-03       7.222932871843e+03 
       1.947637482421e-03       7.566122401382e+03 
       2.050164486964e-03       7.912154024448e+03 
       2.154721445439e-03       8.260141645559e+03 
       2.261134782709e-03       8.609270108716e+03 
       2.369242763423e-03       8.958797627283e+03 
       2.478895942583e-03       9.308055350362e+03 
       2.589957148034e-03       9.656444877431e+03 
       2.702301127868e-03       1.000343441739e+04 
       2.815813972892e-03       1.034855411126e+04 
       2.930392401171e-03       1.069139088787e+04 
       3.045942970532e-03       1.103158314787e+04 
       3.162381266979e-03       1.136881554315e+04 
       3.279631102457e-03       1.170281385695e+04 
       3.397623744103e-03       1.203333808750e+04 
       3.516297188649e-03       1.236018323830e+04 
       3.635595489455e-03       1.268317472390e+04 
       3.755468139282e-03       1.300216425143e+04 
       3.875869508939e-03       1.331702693817e+04 
       3.996758339989e-03       1.362765877191e+04 
       4.118097288511e-03       1.393397432802e+04 
       4.239852516258e-03       1.423590467302e+04 
       4.361993325239e-03       1.453339544909e+04 
       4.484491831732e-03       1.482640501844e+04 
       4.607322675844e-03       1.511490285424e+04 
       4.730462762924e-03       1.539886801294e+04 
       4.853891033431e-03       1.567828801970e+04 
       4.977588258133e-03       1.595315719671e+04 
       5.101536855796e-03       1.622347592711e+04 
       5.225720730834e-03       1.648924985425e+04 
       5.350125128637e-03       1.675048701738e+04 
       5.474736506551e-03       1.700720361186e+04 
       5.599542418723e-03       1.725941812131e+04 
       5.724531413214e-03       1.750715195140e+04 
       5.849692939981e-03       1.775042961828e+04 
       5.975017268482e-03       1.798927841225e+04 
       6.100495413823e-03       1.822372811319e+04 
       6.226119070478e-03       1.845381067966e+04 
       6.351880552726e-03       1.867955995749e+04 
       6.477772741075e-03       1.890101135172e+04 
       6.603789033995e-03       1.911820148715e+04 
       6.729923304396e-03       1.933116797972e+04 
       6.856169860321e-03       1.953994917762e+04 
       6.982523409414e-03       1.974458396130e+04 
       7.108979026751e-03       1.994511162779e+04 
       7.235532125695e-03       2.014157180997e+04 
       7.362178431440e-03       2.033400443883e+04 
       7.488913956984e-03       2.052244973039e+04 
       7.615734981274e-03       2.070694817577e+04 
       7.742638029308e-03       2.088754059297e+04 
       7.869619853992e-03       2.106426805432e+04 
       7.996677419591e-03       2.123717189368e+04 
       8.123807886603e-03       2.140629360333e+04 
       8.251008597930e-03       2.157167479562e+04 
       8.378277066218e-03       2.173335704274e+04 
       8.505610962255e-03       2.189138178433e+04 
       8.633008104328e-03       2.204579022085e+04 
       8.760466448452e-03       2.219662321056e+04 
       8.887984079390e-03       2.234392119327e+04 
       9.015559202394e-03       2.248772414477e+04 
       9.143190135599e-03       2.262807156148e+04 
       9.270875303015e-03       2.276500247554e+04 
       9.398613228068e-03       2.289855548669e+04 
       9.526402527634e-03       2.302876879965e+04 
       9.654241906531e-03       2.315568027269e+04 
       9.782130152429e-03       2.327932750476e+04 
       9.910066131139e-03       2.339974779865e+04 
       1.003804878226e-02       2.351697823532e+04 
       1.016607711513e-02       2.363105562919e+04 
       1.029415020511e-02       2.374201655000e+04 
       1.042226719008e-02       2.384989724898e+04 
       1.055042726726e-02       2.395473367653e+04 
       1.067862969019e-02       2.405656135220e+04 
       1.080687376599e-02       2.415541562502e+04 
       1.093515885275e-02       2.425133134036e+04 
       1.106348435717e-02       2.434434297280e+04 
       1.119184973230e-02       2.443448464185e+04 
       1.132025447552e-02       2.452179014678e+04 
       1.144869812655e-02       2.460629300883e+04 
       1.157718026573e-02       2.468802647611e+04 
       1.170570051231e-02       2.476702363977e+04 
       1.183425852290e-02       2.484331753222e+04 
       1.196285399008e-02       2.491694094377e+04 
       1.209148664099e-02       2.498792641899e+04 
       1.222015623614e-02       2.505630637976e+04 
       1.234886256825e-02       2.512211373363e+04 
       1.247760546111e-02       2.518538065462e+04 
       1.260638476868e-02       2.524613914759e+04 
       1.273520037407e-02       2.530442104244e+04 
       1.286405218876e-02       2.536025780688e+04 
       1.299294015173e-02       2.541368018622e+04 
       1.312186422880e-02       2.546471786766e+04 
       1.325082441185e-02       2.551339966773e+04 
       1.337982071831e-02       2.555975432049e+04 
       1.350885319049e-02       2.560381097367e+04 
       1.363792189506e-02       2.564559893472e+04 
       1.376702692262e-02       2.568514735679e+04 
       1.389616838717e-02       2.572248501375e+04 
       1.402534642579e-02       2.575764032370e+04 
       1.415456119818e-02       2.579064131800e+04 
       1.428381288642e-02       2.582151573739e+04 
       1.441310169460e-02       2.585029097484e+04 
       1.454242784856e-02       2.587699419244e+04 
       1.467179159570e-02       2.590165224239e+04 
       1.480119320474e-02       2.592429174708e+04 
       1.493063296553e-02       2.594493906079e+04 
       1.506011118893e-02       2.596362030932e+04 
       1.518962820665e-02       2.598036136777e+04 
       1.531918437118e-02       2.599518786114e+04 
       1.544878005570e-02       2.600812528664e+04 
       1.557841565402e-02       2.601919882905e+04 
       1.570809158058e-02       2.602843348751e+04 
       1.583780827037e-02       2.603585405560e+04 
       1.596756617904e-02       2.604148511119e+04 
       1.609736578284e-02       2.604535102383e+04 
       1.622720757874e-02       2.604747603120e+04 
       1.635709208446e-02       2.604788407355e+04 
       1.648701983858e-02       2.604659895600e+04 
       1.661699140064e-02       2.604364425524e+04 
       1.674700735127e-02       2.603904336590e+04 
       1.687706829234e-02       2.603281949733e+04 
       1.700717484712e-02       2.602499563177e+04 
       1.713732766045e-02       2.601559463324e+04 
       1.726752739895e-02       2.600463911394e+04 
       1.739777475122e-02       2.599215149994e+04 
       1.752807042811e-02       2.597815406198e+04 
       1.765841516291e-02       2.596266886505e+04 
       1.778880971165e-02       2.594571778847e+04 
       1.791925485338e-02       2.592732254301e+04 
       1.804975139047e-02       2.590750465664e+04 
       1.818030014890e-02       2.588628548288e+04 
       1.831090197862e-02       2.586368618052e+04 
       1.844155775388e-02       2.583972781588e+04 
       1.857226837360e-02       2.581443122244e+04 
       1.870303476176e-02       2.578781710246e+04 
       1.883385786778e-02       2.575990599285e+04 
       1.896473866696e-02       2.573071828759e+04 
       1.909567816088e-02       2.570027422743e+04 
       1.922667737789e-02       2.566859390725e+04 
       1.935773737354e-02       2.563569726738e+04 
       1.948885923109e-02       2.560160414969e+04 
       1.962004406202e-02       2.556633422690e+04 
       1.975129300654e-02       2.552990703672e+04 
       1.988260723412e-02       2.549234199735e+04 
       2.001398794408e-02       2.545365840879e+04 
       2.014543636615e-02       2.541387537038e+04 
       2.027695376109e-02       2.537301181294e+04 
       2.040854142129e-02       2.533108672154e+04 
       2.054020067143e-02       2.528811886290e+04 
       2.067193286913e-02       2.524412682412e+04 
       2.080373940565e-02       2.519912906595e+04 
       2.093562170660e-02       2.515314394840e+04 
       2.106758123264e-02       2.510618966092e+04 
       2.119961948028e-02       2.505828423183e+04 
       2.133173798263e-02       2.500944546475e+04 
       2.146393831021e-02       2.495969121880e+04 
       2.159622207177e-02       2.490903916843e+04 
       2.172859091518e-02       2.485750674749e+04 
       2.186104652827e-02       2.480511119070e+04 
       2.199359063977e-02       2.475186973288e+04 
       2.212622502023e-02       2.469779927732e+04 
       2.225895148300e-02       2.464291662970e+04 
       2.239177188522e-02       2.458723847892e+04 
       2.252468812886e-02       2.453078136953e+04 
       2.265770216177e-02       2.447356157837e+04 
       2.279081597878e-02       2.441559527549e+04 
       2.292403162285e-02       2.435689840784e+04 
       2.305735118619e-02       2.429748674101e+04 
       2.319077681150e-02       2.423737605306e+04 
       2.332431069319e-02       2.417658180888e+04 
       2.345795507867e-02       2.411511929340e+04 
       2.359171226966e-02       2.405300366965e+04 
       2.372558462354e-02       2.399024993051e+04 
       2.385957455479e-02       2.392687282401e+04 
       2.399368453639e-02       2.386288710922e+04 
       2.412791710136e-02       2.379830720340e+04 
       2.426227484425e-02       2.373314744102e+04 
       2.439676042280e-02       2.366742198115e+04 
       2.453137655952e-02       2.360114477217e+04 
       2.466612604342e-02       2.353432960941e+04 
       2.480101173176e-02       2.346699033813e+04 
       2.493603655184e-02       2.339914046094e+04 
       2.507120350289e-02       2.333079334518e+04 
       2.520651565801e-02       2.326196222324e+04 
       2.534197616612e-02       2.319266016102e+04 
       2.547758825408e-02       2.312290003192e+04 
       2.561335522878e-02       2.305269460408e+04 
       2.574928047934e-02       2.298205654299e+04 
       2.588536747944e-02       2.291099831820e+04 
       2.602161978961e-02       2.283953226604e+04 
       2.615804105970e-02       2.276767054522e+04 
       2.629463503141e-02       2.269542507718e+04 
       2.643140554087e-02       2.262280786344e+04 
       2.656835652138e-02       2.254983060342e+04 
       2.670549200616e-02       2.247650484541e+04 
       2.684281613126e-02       2.240284212914e+04 
       2.698033313861e-02       2.232885367262e+04 
       2.711804737902e-02       2.225455060232e+04 
       2.725596331550e-02       2.217994374927e+04 
       2.739408552653e-02       2.210504413725e+04 
       2.753241870957e-02       2.202986241886e+04 
       2.767096768457e-02       2.195440916506e+04 
       2.780973739778e-02       2.187869471228e+04 
       2.794873292553e-02       2.180272921289e+04 
       2.808795947828e-02       2.172652280726e+04 
       2.822742240475e-02       2.165008540650e+04 
       2.836712719626e-02       2.157342675693e+04 
       2.850707949119e-02       2.149655635304e+04 
       2.864728507964e-02       2.141948376309e+04 
       2.878774990826e-02       2.134221828768e+04 
       2.892848008532e-02       2.126476905520e+04 
       2.906948188587e-02       2.118714496556e+04 
       2.921076175724e-02       2.110935486403e+04 
       2.935232632467e-02       2.103140721943e+04 
       2.949418239720e-02       2.095331058714e+04 
       2.963633697381e-02       2.087507347159e+04 
       2.977879724979e-02       2.079670396915e+04 
       2.992157062342e-02       2.071821006924e+04 
       3.006466470287e-02       2.063959954751e+04 
       3.020808731345e-02       2.056087997480e+04 
       3.035184650512e-02       2.048205900404e+04 
       3.049595056039e-02       2.040314400217e+04 
       3.064040800250e-02       2.032414210403e+04 
       3.078522760397e-02       2.024506027871e+04 
       3.093041839558e-02       2.016590531013e+04 
       3.107598967570e-02       2.008668411332e+04 
       3.122195102006e-02       2.000740313078e+04 
       3.136831229195e-02       1.992806881091e+04 
       3.151508365291e-02       1.984868736818e+04 
       3.166227557392e-02       1.976926480950e+04 
       3.180989884709e-02       1.968980709729e+04 
       3.195796459793e-02       1.961031973883e+04 
       3.210648429817e-02       1.953080865260e+04 
       3.225546977921e-02       1.945127924087e+04 
       3.240493324629e-02       1.937173674843e+04 
       3.255488729323e-02       1.929218630968e+04 
       3.270534491804e-02       1.921263275265e+04 
       3.285631953916e-02       1.913308105641e+04 
       3.300782501271e-02       1.905353582852e+04 
       3.315987565042e-02       1.897400157180e+04 
       3.331248623865e-02       1.889448252462e+04 
       3.346567205831e-02       1.881498288088e+04 
       3.361944890586e-02       1.873550672267e+04 
       3.377383311543e-02       1.865605785990e+04 
       3.392884158214e-02       1.857663999021e+04 
       3.408449178667e-02       1.849725659800e+04 
       3.424080182116e-02       1.841791100832e+04 
       3.439779041665e-02       1.833860627922e+04 
       3.455547697192e-02       1.825934543438e+04 
       3.471388158410e-02       1.818013140013e+04 
       3.487302508096e-02       1.810096676380e+04 
       3.503292905512e-02       1.802185395677e+04 
       3.519361590022e-02       1.794279514054e+04 
       3.535510884934e-02       1.786379251952e+04 
       3.551743201561e-02       1.778484796282e+04 
       3.568061043543e-02       1.770596311622e+04 
       3.584467011420e-02       1.762713948506e+04 
       3.600963807508e-02       1.754837843519e+04 
       3.617554241067e-02       1.746968111296e+04 
       3.634241233811e-02       1.739104845453e+04 
       3.651027825768e-02       1.731248116590e+04 
       3.667917181529e-02       1.723397976725e+04 
       3.684912596911e-02       1.715554447768e+04 
       3.702017506066e-02       1.707717549946e+04 
       3.719235489078e-02       1.699887281711e+04 
       3.736570280082e-02       1.692063610212e+04 
       3.754025775957e-02       1.684246480528e+04 
       3.771606045631e-02       1.676435812526e+04 
       3.789315340056e-02       1.668631506866e+04 
       3.807158102915e-02       1.660833447569e+04 
       3.825138982118e-02       1.653041487026e+04 
       3.843262842163e-02       1.645255452346e+04 
       3.861534777439e-02       1.637475140662e+04 
       3.879960126557e-02       1.629700328587e+04 
       3.898544487800e-02       1.621930767664e+04 
       3.917293735819e-02       1.614166174409e+04 
       3.936214039660e-02       1.606406238444e+04 
       3.955311882288e-02       1.598650615754e+04 
       3.974594081730e-02       1.590898929393e+04 
       3.994067814016e-02       1.583150764653e+04 
       4.013740638095e-02       1.575405678996e+04 
       4.033620522933e-02       1.567663194653e+04 
       4.053715877027e-02       1.559922788774e+04 
       4.074035580589e-02       1.552183901256e+04 
       4.094589020702e-02       1.544445922446e+04 
       4.115386129761e-02       1.536708209892e+04 
       4.136437427601e-02       1.528970068410e+04 
       4.157754067699e-02       1.521230752543e+04 
       4.179347887968e-02       1.513489464179e+04 
       4.201231466659e-02       1.505745355187e+04 
       4.223418184016e-02       1.497997514572e+04 
       4.245922290382e-02       1.490244971804e+04 
       4.268758981592e-02       1.482486687538e+04 
       4.291944482567e-02       1.474721552456e+04 
       4.315496140216e-02       1.466948380540e+04 
       4.339432526876e-02       1.459165902226e+04 
       4.363773555743e-02       1.451372759782e+04 
       4.388540609974e-02       1.443567497627e+04 
       4.413756687410e-02       1.435748555078e+04 
       4.439446563204e-02       1.427914258279e+04 
       4.465636973029e-02       1.420062808417e+04 
       4.492356820003e-02       1.412192269879e+04 
       4.519637409043e-02       1.404300556492e+04 
       4.547512713023e-02       1.396385416923e+04 
       4.576019675944e-02       1.388444418796e+04 
       4.605198559319e-02       1.380474926759e+04 
       4.635093339178e-02       1.372474080404e+04 
       4.665752162611e-02       1.364438766653e+04 
       4.697227874568e-02       1.356365589511e+04 
       4.729578627920e-02       1.348250833472e+04 
       4.762868592558e-02       1.340090416419e+04 
       4.797168782805e-02       1.331879839629e+04 
       4.832558026764e-02       1.323614122910e+04 
       4.869124106680e-02       1.315287729551e+04 
       4.906965106291e-02       1.306894475156e+04 
       4.946191009808e-02       1.298427411186e+04 
       4.986925608239e-02       1.289878688633e+04 
       5.029308782760e-02       1.281239385386e+04 
       5.073499252770e-02       1.272499290789e+04 
       5.119677899004e-02       1.263646629627e+04 
       5.168051801145e-02       1.254667712884e+04 
       5.218859166142e-02       1.245546481132e+04 
       5.272375369654e-02       1.236263903903e+04 
       5.328920390233e-02       1.226797188639e+04 
       5.388867984526e-02       1.217118723406e+04 
       5.452657030237e-02       1.207194643348e+04 
       5.520805544098e-02       1.196982881771e+04 
       5.593927944937e-02       1.186430482286e+04 
       5.672756132244e-02       1.175469845340e+04 
       5.758164794679e-02       1.164013459225e+04 
       5.851200865385e-02       1.151946492384e+04 
       5.953115853829e-02       1.139116434218e+04 
       6.065397298806e-02       1.125318873988e+04 
       6.189790856370e-02       1.110278583528e+04 
